# energy [eV], band-resolved DOS
  -27.596440    0.000343
  -27.544626    0.000346
  -27.492812    0.000348
  -27.440998    0.000351
  -27.389184    0.000354
  -27.337370    0.000356
  -27.285556    0.000359
  -27.233742    0.000362
  -27.181928    0.000364
  -27.130114    0.000367
  -27.078300    0.000370
  -27.026486    0.000373
  -26.974672    0.000376
  -26.922858    0.000379
  -26.871044    0.000382
  -26.819230    0.000385
  -26.767416    0.000388
  -26.715602    0.000391
  -26.663788    0.000394
  -26.611974    0.000397
  -26.560160    0.000400
  -26.508346    0.000404
  -26.456532    0.000407
  -26.404718    0.000410
  -26.352904    0.000414
  -26.301090    0.000417
  -26.249276    0.000420
  -26.197461    0.000424
  -26.145647    0.000427
  -26.093833    0.000431
  -26.042019    0.000435
  -25.990205    0.000438
  -25.938391    0.000442
  -25.886577    0.000446
  -25.834763    0.000449
  -25.782949    0.000453
  -25.731135    0.000457
  -25.679321    0.000461
  -25.627507    0.000465
  -25.575693    0.000469
  -25.523879    0.000473
  -25.472065    0.000477
  -25.420251    0.000482
  -25.368437    0.000486
  -25.316623    0.000490
  -25.264809    0.000495
  -25.212995    0.000499
  -25.161181    0.000504
  -25.109367    0.000508
  -25.057553    0.000513
  -25.005739    0.000518
  -24.953925    0.000522
  -24.902111    0.000527
  -24.850297    0.000532
  -24.798483    0.000537
  -24.746669    0.000542
  -24.694855    0.000547
  -24.643041    0.000552
  -24.591227    0.000558
  -24.539413    0.000563
  -24.487599    0.000569
  -24.435785    0.000574
  -24.383971    0.000580
  -24.332157    0.000585
  -24.280343    0.000591
  -24.228528    0.000597
  -24.176714    0.000603
  -24.124900    0.000609
  -24.073086    0.000615
  -24.021272    0.000621
  -23.969458    0.000627
  -23.917644    0.000634
  -23.865830    0.000640
  -23.814016    0.000647
  -23.762202    0.000654
  -23.710388    0.000661
  -23.658574    0.000667
  -23.606760    0.000674
  -23.554946    0.000682
  -23.503132    0.000689
  -23.451318    0.000696
  -23.399504    0.000704
  -23.347690    0.000711
  -23.295876    0.000719
  -23.244062    0.000727
  -23.192248    0.000735
  -23.140434    0.000743
  -23.088620    0.000752
  -23.036806    0.000760
  -22.984992    0.000769
  -22.933178    0.000777
  -22.881364    0.000786
  -22.829550    0.000795
  -22.777736    0.000804
  -22.725922    0.000814
  -22.674108    0.000823
  -22.622294    0.000833
  -22.570480    0.000843
  -22.518666    0.000853
  -22.466852    0.000863
  -22.415038    0.000874
  -22.363224    0.000884
  -22.311410    0.000895
  -22.259596    0.000906
  -22.207781    0.000917
  -22.155967    0.000929
  -22.104153    0.000941
  -22.052339    0.000952
  -22.000525    0.000965
  -21.948711    0.000977
  -21.896897    0.000990
  -21.845083    0.001002
  -21.793269    0.001016
  -21.741455    0.001029
  -21.689641    0.001043
  -21.637827    0.001057
  -21.586013    0.001071
  -21.534199    0.001085
  -21.482385    0.001100
  -21.430571    0.001115
  -21.378757    0.001131
  -21.326943    0.001147
  -21.275129    0.001163
  -21.223315    0.001179
  -21.171501    0.001196
  -21.119687    0.001213
  -21.067873    0.001231
  -21.016059    0.001249
  -20.964245    0.001268
  -20.912431    0.001286
  -20.860617    0.001306
  -20.808803    0.001325
  -20.756989    0.001346
  -20.705175    0.001366
  -20.653361    0.001387
  -20.601547    0.001409
  -20.549733    0.001431
  -20.497919    0.001454
  -20.446105    0.001477
  -20.394291    0.001501
  -20.342477    0.001526
  -20.290663    0.001551
  -20.238848    0.001577
  -20.187034    0.001603
  -20.135220    0.001630
  -20.083406    0.001658
  -20.031592    0.001687
  -19.979778    0.001716
  -19.927964    0.001746
  -19.876150    0.001778
  -19.824336    0.001809
  -19.772522    0.001842
  -19.720708    0.001876
  -19.668894    0.001911
  -19.617080    0.001946
  -19.565266    0.001983
  -19.513452    0.002021
  -19.461638    0.002060
  -19.409824    0.002100
  -19.358010    0.002141
  -19.306196    0.002184
  -19.254382    0.002228
  -19.202568    0.002273
  -19.150754    0.002320
  -19.098940    0.002368
  -19.047126    0.002418
  -18.995312    0.002470
  -18.943498    0.002523
  -18.891684    0.002578
  -18.839870    0.002635
  -18.788056    0.002694
  -18.736242    0.002756
  -18.684428    0.002819
  -18.632614    0.002885
  -18.580800    0.002953
  -18.528986    0.003024
  -18.477172    0.003097
  -18.425358    0.003173
  -18.373544    0.003252
  -18.321730    0.003335
  -18.269915    0.003420
  -18.218101    0.003510
  -18.166287    0.003603
  -18.114473    0.003699
  -18.062659    0.003800
  -18.010845    0.003906
  -17.959031    0.004016
  -17.907217    0.004131
  -17.855403    0.004252
  -17.803589    0.004378
  -17.751775    0.004510
  -17.699961    0.004649
  -17.648147    0.004794
  -17.596333    0.004947
  -17.544519    0.005108
  -17.492705    0.005278
  -17.440891    0.005456
  -17.389077    0.005644
  -17.337263    0.005843
  -17.285449    0.006054
  -17.233635    0.006277
  -17.181821    0.006513
  -17.130007    0.006763
  -17.078193    0.007030
  -17.026379    0.007314
  -16.974565    0.007617
  -16.922751    0.007940
  -16.870937    0.008287
  -16.819123    0.008658
  -16.767309    0.009057
  -16.715495    0.009487
  -16.663681    0.009951
  -16.611867    0.010453
  -16.560053    0.010997
  -16.508239    0.011589
  -16.456425    0.012235
  -16.404611    0.012942
  -16.352797    0.013718
  -16.300982    0.014573
  -16.249168    0.015520
  -16.197354    0.016572
  -16.145540    0.017747
  -16.093726    0.019067
  -16.041912    0.020556
  -15.990098    0.022248
  -15.938284    0.024184
  -15.886470    0.026417
  -15.834656    0.029013
  -15.782842    0.032061
  -15.731028    0.035678
  -15.679214    0.040020
  -15.627400    0.045298
  -15.575586    0.051803
  -15.523772    0.059920
  -15.471958    0.070161
  -15.420144    0.083132
  -15.368330    0.099417
  -15.316516    0.119278
  -15.264702    0.142264
  -15.212888    0.166954
  -15.161074    0.190590
  -15.109260    0.209423
  -15.057446    0.222070
  -15.005632    0.232194
  -14.953818    0.244931
  -14.902004    0.261702
  -14.850190    0.279345
  -14.798376    0.292735
  -14.746562    0.298638
  -14.694748    0.298691
  -14.642934    0.298104
  -14.591120    0.301457
  -14.539306    0.309808
  -14.487492    0.318842
  -14.435678    0.320497
  -14.383864    0.310740
  -14.332049    0.293518
  -14.280235    0.274333
  -14.228421    0.255621
  -14.176607    0.239563
  -14.124793    0.229432
  -14.072979    0.226701
  -14.021165    0.228743
  -13.969351    0.229399
  -13.917537    0.222729
  -13.865723    0.207490
  -13.813909    0.187895
  -13.762095    0.169923
  -13.710281    0.157628
  -13.658467    0.152653
  -13.606653    0.155285
  -13.554839    0.164857
  -13.503025    0.178845
  -13.451211    0.191397
  -13.399397    0.194549
  -13.347583    0.184534
  -13.295769    0.165789
  -13.243955    0.145928
  -13.192141    0.129924
  -13.140327    0.119538
  -13.088513    0.114979
  -13.036699    0.116079
  -12.984885    0.122569
  -12.933071    0.133573
  -12.881257    0.146412
  -12.829443    0.155887
  -12.777629    0.156867
  -12.725815    0.149332
  -12.674001    0.138400
  -12.622187    0.129028
  -12.570373    0.122856
  -12.518559    0.118705
  -12.466745    0.114869
  -12.414931    0.111410
  -12.363116    0.110005
  -12.311302    0.111961
  -12.259488    0.116829
  -12.207674    0.121880
  -12.155860    0.123120
  -12.104046    0.118681
  -12.052232    0.110868
  -12.000418    0.103607
  -11.948604    0.099557
  -11.896790    0.099834
  -11.844976    0.104717
  -11.793162    0.113872
  -11.741348    0.125814
  -11.689534    0.137343
  -11.637720    0.144842
  -11.585906    0.147369
  -11.534092    0.146839
  -11.482278    0.145112
  -11.430464    0.143338
  -11.378650    0.142708
  -11.326836    0.143727
  -11.275022    0.145965
  -11.223208    0.149498
  -11.171394    0.155503
  -11.119580    0.164516
  -11.067766    0.175294
  -11.015952    0.185770
  -10.964138    0.193890
  -10.912324    0.197763
  -10.860510    0.197016
  -10.808696    0.194103
  -10.756882    0.191968
  -10.705068    0.190127
  -10.653254    0.185023
  -10.601440    0.174290
  -10.549626    0.158752
  -10.497812    0.140428
  -10.445998    0.120829
  -10.394184    0.101492
  -10.342369    0.084119
  -10.290555    0.069675
  -10.238741    0.058181
  -10.186927    0.049177
  -10.135113    0.042112
  -10.083299    0.036518
  -10.031485    0.032029
   -9.979671    0.028379
   -9.927857    0.025370
   -9.876043    0.022859
   -9.824229    0.020740
   -9.772415    0.018933
   -9.720601    0.017378
   -9.668787    0.016028
   -9.616973    0.014848
   -9.565159    0.013808
   -9.513345    0.012886
   -9.461531    0.012065
   -9.409717    0.011329
   -9.357903    0.010667
   -9.306089    0.010067
   -9.254275    0.009523
   -9.202461    0.009028
   -9.150647    0.008574
   -9.098833    0.008158
   -9.047019    0.007775
   -8.995205    0.007421
   -8.943391    0.007094
   -8.891577    0.006791
   -8.839763    0.006508
   -8.787949    0.006245
   -8.736135    0.006000
   -8.684321    0.005770
   -8.632507    0.005554
   -8.580693    0.005352
   -8.528879    0.005162
   -8.477065    0.004983
   -8.425251    0.004813
   -8.373436    0.004654
   -8.321622    0.004503
   -8.269808    0.004359
   -8.217994    0.004224
   -8.166180    0.004095
   -8.114366    0.003972
   -8.062552    0.003856
   -8.010738    0.003745
   -7.958924    0.003639
   -7.907110    0.003538
   -7.855296    0.003441
   -7.803482    0.003349
   -7.751668    0.003261
   -7.699854    0.003176
   -7.648040    0.003095
   -7.596226    0.003017
   -7.544412    0.002943
   -7.492598    0.002871
   -7.440784    0.002802
   -7.388970    0.002736
   -7.337156    0.002672
   -7.285342    0.002611
   -7.233528    0.002552
   -7.181714    0.002495
   -7.129900    0.002440
   -7.078086    0.002387
   -7.026272    0.002336
   -6.974458    0.002287
   -6.922644    0.002239
   -6.870830    0.002193
   -6.819016    0.002148
   -6.767202    0.002105
   -6.715388    0.002063
   -6.663574    0.002022
   -6.611760    0.001983
   -6.559946    0.001945
   -6.508132    0.001908
   -6.456318    0.001872
   -6.404503    0.001837
   -6.352689    0.001804
   -6.300875    0.001771
   -6.249061    0.001739
   -6.197247    0.001708
   -6.145433    0.001678
   -6.093619    0.001649
   -6.041805    0.001620
   -5.989991    0.001593
   -5.938177    0.001566
   -5.886363    0.001540
   -5.834549    0.001514
   -5.782735    0.001489
   -5.730921    0.001465
   -5.679107    0.001441
   -5.627293    0.001418
   -5.575479    0.001396
   -5.523665    0.001374
   -5.471851    0.001353
   -5.420037    0.001332
   -5.368223    0.001311
   -5.316409    0.001292
   -5.264595    0.001272
   -5.212781    0.001253
   -5.160967    0.001235
   -5.109153    0.001217
   -5.057339    0.001199
   -5.005525    0.001182
   -4.953711    0.001165
   -4.901897    0.001148
   -4.850083    0.001132
   -4.798269    0.001116
   -4.746455    0.001101
   -4.694641    0.001086
   -4.642827    0.001071
   -4.591013    0.001056
   -4.539199    0.001042
   -4.487385    0.001028
   -4.435570    0.001015
   -4.383756    0.001001
   -4.331942    0.000988
   -4.280128    0.000976
   -4.228314    0.000963
   -4.176500    0.000951
   -4.124686    0.000939
   -4.072872    0.000927
   -4.021058    0.000915
   -3.969244    0.000904
   -3.917430    0.000893
   -3.865616    0.000882
   -3.813802    0.000871
   -3.761988    0.000861
   -3.710174    0.000850
   -3.658360    0.000840
   -3.606546    0.000830
   -3.554732    0.000820
   -3.502918    0.000811
   -3.451104    0.000801
   -3.399290    0.000792
   -3.347476    0.000783
   -3.295662    0.000774
   -3.243848    0.000765
   -3.192034    0.000757
   -3.140220    0.000748
   -3.088406    0.000740
   -3.036592    0.000732
   -2.984778    0.000724
   -2.932964    0.000716
   -2.881150    0.000708
   -2.829336    0.000700
   -2.777522    0.000693
   -2.725708    0.000685
   -2.673894    0.000678
   -2.622080    0.000671
   -2.570266    0.000664
   -2.518452    0.000657
   -2.466637    0.000650
   -2.414823    0.000643
   -2.363009    0.000637
   -2.311195    0.000630
   -2.259381    0.000624
   -2.207567    0.000618
   -2.155753    0.000611
   -2.103939    0.000605
   -2.052125    0.000599
   -2.000311    0.000593
   -1.948497    0.000588
   -1.896683    0.000582
   -1.844869    0.000576
   -1.793055    0.000571
   -1.741241    0.000565
