# energy [eV], total DOS
  -27.596440    0.002577
  -27.544626    0.002614
  -27.492812    0.002652
  -27.440998    0.002692
  -27.389184    0.002732
  -27.337370    0.002773
  -27.285556    0.002815
  -27.233742    0.002859
  -27.181928    0.002904
  -27.130114    0.002950
  -27.078300    0.002997
  -27.026486    0.003045
  -26.974672    0.003095
  -26.922858    0.003147
  -26.871044    0.003200
  -26.819230    0.003255
  -26.767416    0.003311
  -26.715602    0.003369
  -26.663788    0.003429
  -26.611974    0.003490
  -26.560160    0.003554
  -26.508346    0.003620
  -26.456532    0.003688
  -26.404718    0.003758
  -26.352904    0.003831
  -26.301090    0.003907
  -26.249276    0.003985
  -26.197461    0.004065
  -26.145647    0.004149
  -26.093833    0.004236
  -26.042019    0.004326
  -25.990205    0.004420
  -25.938391    0.004517
  -25.886577    0.004619
  -25.834763    0.004724
  -25.782949    0.004834
  -25.731135    0.004949
  -25.679321    0.005068
  -25.627507    0.005193
  -25.575693    0.005324
  -25.523879    0.005461
  -25.472065    0.005604
  -25.420251    0.005754
  -25.368437    0.005911
  -25.316623    0.006077
  -25.264809    0.006251
  -25.212995    0.006434
  -25.161181    0.006627
  -25.109367    0.006832
  -25.057553    0.007048
  -25.005739    0.007277
  -24.953925    0.007519
  -24.902111    0.007777
  -24.850297    0.008052
  -24.798483    0.008346
  -24.746669    0.008659
  -24.694855    0.008995
  -24.643041    0.009356
  -24.591227    0.009744
  -24.539413    0.010164
  -24.487599    0.010618
  -24.435785    0.011111
  -24.383971    0.011649
  -24.332157    0.012238
  -24.280343    0.012884
  -24.228528    0.013598
  -24.176714    0.014389
  -24.124900    0.015270
  -24.073086    0.016259
  -24.021272    0.017375
  -23.969458    0.018643
  -23.917644    0.020096
  -23.865830    0.021777
  -23.814016    0.023739
  -23.762202    0.026056
  -23.710388    0.028825
  -23.658574    0.032180
  -23.606760    0.036301
  -23.554946    0.041433
  -23.503132    0.047896
  -23.451318    0.056074
  -23.399504    0.066317
  -23.347690    0.078707
  -23.295876    0.092673
  -23.244062    0.106860
  -23.192248    0.119833
  -23.140434    0.131165
  -23.088620    0.140944
  -23.036806    0.148487
  -22.984992    0.153241
  -22.933178    0.156458
  -22.881364    0.160601
  -22.829550    0.166625
  -22.777736    0.172453
  -22.725922    0.175259
  -22.674108    0.174867
  -22.622294    0.173238
  -22.570480    0.172456
  -22.518666    0.174548
  -22.466852    0.180498
  -22.415038    0.188490
  -22.363224    0.194328
  -22.311410    0.194685
  -22.259596    0.190346
  -22.207781    0.185338
  -22.155967    0.182812
  -22.104153    0.183376
  -22.052339    0.186987
  -22.000525    0.193929
  -21.948711    0.203000
  -21.896897    0.210820
  -21.845083    0.214396
  -21.793269    0.212816
  -21.741455    0.206728
  -21.689641    0.199008
  -21.637827    0.193978
  -21.586013    0.194356
  -21.534199    0.199975
  -21.482385    0.209097
  -21.430571    0.219959
  -21.378757    0.230230
  -21.326943    0.236665
  -21.275129    0.237784
  -21.223315    0.235381
  -21.171501    0.231428
  -21.119687    0.226081
  -21.067873    0.220547
  -21.016059    0.218501
  -20.964245    0.223195
  -20.912431    0.234967
  -20.860617    0.251086
  -20.808803    0.267105
  -20.756989    0.278772
  -20.705175    0.283877
  -20.653361    0.283342
  -20.601547    0.280489
  -20.549733    0.278193
  -20.497919    0.277263
  -20.446105    0.279142
  -20.394291    0.287283
  -20.342477    0.303953
  -20.290663    0.327483
  -20.238848    0.352347
  -20.187034    0.370724
  -20.135220    0.375935
  -20.083406    0.366670
  -20.031592    0.348069
  -19.979778    0.328579
  -19.927964    0.314302
  -19.876150    0.305723
  -19.824336    0.298727
  -19.772522    0.287392
  -19.720708    0.268544
  -19.668894    0.244894
  -19.617080    0.221517
  -19.565266    0.200419
  -19.513452    0.180157
  -19.461638    0.159010
  -19.409824    0.137164
  -19.358010    0.116400
  -19.306196    0.098375
  -19.254382    0.083638
  -19.202568    0.071905
  -19.150754    0.062610
  -19.098940    0.055198
  -19.047126    0.049219
  -18.995312    0.044335
  -18.943498    0.040296
  -18.891684    0.036915
  -18.839870    0.034056
  -18.788056    0.031617
  -18.736242    0.029517
  -18.684428    0.027698
  -18.632614    0.026111
  -18.580800    0.024719
  -18.528986    0.023494
  -18.477172    0.022410
  -18.425358    0.021448
  -18.373544    0.020593
  -18.321730    0.019830
  -18.269915    0.019150
  -18.218101    0.018542
  -18.166287    0.017998
  -18.114473    0.017513
  -18.062659    0.017080
  -18.010845    0.016695
  -17.959031    0.016354
  -17.907217    0.016052
  -17.855403    0.015788
  -17.803589    0.015559
  -17.751775    0.015361
  -17.699961    0.015195
  -17.648147    0.015057
  -17.596333    0.014947
  -17.544519    0.014864
  -17.492705    0.014806
  -17.440891    0.014774
  -17.389077    0.014767
  -17.337263    0.014784
  -17.285449    0.014825
  -17.233635    0.014891
  -17.181821    0.014982
  -17.130007    0.015098
  -17.078193    0.015240
  -17.026379    0.015409
  -16.974565    0.015606
  -16.922751    0.015833
  -16.870937    0.016090
  -16.819123    0.016381
  -16.767309    0.016707
  -16.715495    0.017071
  -16.663681    0.017476
  -16.611867    0.017925
  -16.560053    0.018424
  -16.508239    0.018977
  -16.456425    0.019590
  -16.404611    0.020270
  -16.352797    0.021025
  -16.300982    0.021866
  -16.249168    0.022804
  -16.197354    0.023853
  -16.145540    0.025031
  -16.093726    0.026358
  -16.041912    0.027862
  -15.990098    0.029574
  -15.938284    0.031536
  -15.886470    0.033800
  -15.834656    0.036434
  -15.782842    0.039526
  -15.731028    0.043194
  -15.679214    0.047592
  -15.627400    0.052935
  -15.575586    0.059509
  -15.523772    0.067705
  -15.471958    0.078030
  -15.420144    0.091093
  -15.368330    0.107480
  -15.316516    0.127450
  -15.264702    0.150554
  -15.212888    0.175372
  -15.161074    0.199147
  -15.109260    0.218129
  -15.057446    0.230936
  -15.005632    0.241233
  -14.953818    0.254157
  -14.902004    0.271128
  -14.850190    0.288989
  -14.798376    0.302613
  -14.746562    0.308769
  -14.694748    0.309097
  -14.642934    0.308807
  -14.591120    0.312483
  -14.539306    0.321186
  -14.487492    0.330605
  -14.435678    0.332683
  -14.383864    0.323390
  -14.332049    0.306681
  -14.280235    0.288066
  -14.228421    0.269989
  -14.176607    0.254645
  -14.124793    0.245323
  -14.072979    0.243512
  -14.021165    0.246614
  -13.969351    0.248503
  -13.917537    0.243283
  -13.865723    0.229774
  -13.813909    0.212270
  -13.762095    0.196865
  -13.710281    0.187766
  -13.658467    0.186818
  -13.606653    0.194531
  -13.554839    0.210393
  -13.503025    0.231713
  -13.451211    0.251732
  -13.399397    0.260787
  -13.347583    0.253832
  -13.295769    0.236021
  -13.243955    0.217150
  -13.192141    0.204110
  -13.140327    0.199644
  -13.088513    0.204074
  -13.036699    0.216370
  -12.984885    0.234436
  -12.933071    0.255453
  -12.881257    0.275278
  -12.829443    0.286913
  -12.777629    0.283991
  -12.725815    0.268373
  -12.674001    0.249176
  -12.622187    0.234467
  -12.570373    0.227279
  -12.518559    0.226816
  -12.466745    0.231259
  -12.414931    0.239940
  -12.363116    0.252852
  -12.311302    0.269049
  -12.259488    0.286088
  -12.207674    0.299495
  -12.155860    0.304541
  -12.104046    0.300896
  -12.052232    0.292376
  -12.000418    0.281971
  -11.948604    0.271490
  -11.896790    0.264411
  -11.844976    0.264995
  -11.793162    0.275694
  -11.741348    0.296003
  -11.689534    0.322029
  -11.637720    0.347478
  -11.585906    0.367231
  -11.534092    0.380038
  -11.482278    0.386962
  -11.430464    0.389033
  -11.378650    0.387703
  -11.326836    0.386088
  -11.275022    0.388202
  -11.223208    0.396674
  -11.171394    0.411496
  -11.119580    0.430843
  -11.067766    0.453696
  -11.015952    0.479815
  -10.964138    0.506598
  -10.912324    0.529188
  -10.860510    0.545177
  -10.808696    0.555928
  -10.756882    0.560860
  -10.705068    0.555841
  -10.653254    0.539775
  -10.601440    0.517689
  -10.549626    0.496661
  -10.497812    0.480010
  -10.445998    0.465978
  -10.394184    0.453308
  -10.342369    0.445543
  -10.290555    0.446686
  -10.238741    0.454836
  -10.186927    0.462645
  -10.135113    0.463679
  -10.083299    0.455415
  -10.031485    0.437744
   -9.979671    0.414185
   -9.927857    0.392262
   -9.876043    0.378732
   -9.824229    0.375132
   -9.772415    0.378340
   -9.720601    0.384705
   -9.668787    0.393273
   -9.616973    0.403766
   -9.565159    0.411916
   -9.513345    0.410702
   -9.461531    0.397587
   -9.409717    0.377347
   -9.357903    0.356139
   -9.306089    0.337169
   -9.254275    0.323139
   -9.202461    0.317293
   -9.150647    0.320631
   -9.098833    0.330491
   -9.047019    0.342272
   -8.995205    0.351899
   -8.943391    0.356842
   -8.891577    0.356997
   -8.839763    0.354217
   -8.787949    0.349617
   -8.736135    0.343114
   -8.684321    0.335338
   -8.632507    0.328691
   -8.580693    0.325273
   -8.528879    0.323622
   -8.477065    0.319349
   -8.425251    0.309605
   -8.373436    0.296298
   -8.321622    0.283646
   -8.269808    0.274600
   -8.217994    0.270310
   -8.166180    0.270208
   -8.114366    0.272648
   -8.062552    0.275872
   -8.010738    0.278122
   -7.958924    0.277531
   -7.907110    0.272913
   -7.855296    0.264358
   -7.803482    0.252823
   -7.751668    0.240856
   -7.699854    0.231667
   -7.648040    0.225834
   -7.596226    0.220763
   -7.544412    0.214497
   -7.492598    0.208965
   -7.440784    0.208105
   -7.388970    0.214531
   -7.337156    0.228477
   -7.285342    0.248241
   -7.233528    0.271117
   -7.181714    0.293410
   -7.129900    0.310079
   -7.078086    0.316905
   -7.026272    0.312617
   -6.974458    0.298375
   -6.922644    0.277405
   -6.870830    0.255246
   -6.819016    0.237696
   -6.767202    0.227634
   -6.715388    0.224479
   -6.663574    0.226116
   -6.611760    0.230073
   -6.559946    0.232269
   -6.508132    0.227446
   -6.456318    0.213369
   -6.404503    0.193356
   -6.352689    0.173452
   -6.300875    0.157878
   -6.249061    0.147279
   -6.197247    0.139595
   -6.145433    0.132066
   -6.093619    0.122958
   -6.041805    0.111590
   -5.989991    0.098295
   -5.938177    0.084625
   -5.886363    0.072241
   -5.834549    0.061904
   -5.782735    0.053596
   -5.730921    0.046982
   -5.679107    0.041686
   -5.627293    0.037394
   -5.575479    0.033868
   -5.523665    0.030928
   -5.471851    0.028446
   -5.420037    0.026323
   -5.368223    0.024488
   -5.316409    0.022887
   -5.264595    0.021477
   -5.212781    0.020227
   -5.160967    0.019110
   -5.109153    0.018107
   -5.057339    0.017199
   -5.005525    0.016376
   -4.953711    0.015624
   -4.901897    0.014935
   -4.850083    0.014302
   -4.798269    0.013717
   -4.746455    0.013176
   -4.694641    0.012673
   -4.642827    0.012205
   -4.591013    0.011768
   -4.539199    0.011360
   -4.487385    0.010976
   -4.435570    0.010616
   -4.383756    0.010277
   -4.331942    0.009957
   -4.280128    0.009655
   -4.228314    0.009369
   -4.176500    0.009099
   -4.124686    0.008842
   -4.072872    0.008597
   -4.021058    0.008365
   -3.969244    0.008144
   -3.917430    0.007933
   -3.865616    0.007731
   -3.813802    0.007538
   -3.761988    0.007354
   -3.710174    0.007178
   -3.658360    0.007009
   -3.606546    0.006846
   -3.554732    0.006691
   -3.502918    0.006541
   -3.451104    0.006397
   -3.399290    0.006259
   -3.347476    0.006126
   -3.295662    0.005997
   -3.243848    0.005873
   -3.192034    0.005754
   -3.140220    0.005639
   -3.088406    0.005527
   -3.036592    0.005420
   -2.984778    0.005316
   -2.932964    0.005215
   -2.881150    0.005117
   -2.829336    0.005023
   -2.777522    0.004931
   -2.725708    0.004843
   -2.673894    0.004757
   -2.622080    0.004673
   -2.570266    0.004593
   -2.518452    0.004514
   -2.466637    0.004438
   -2.414823    0.004363
   -2.363009    0.004291
   -2.311195    0.004221
   -2.259381    0.004153
   -2.207567    0.004087
   -2.155753    0.004022
   -2.103939    0.003959
   -2.052125    0.003898
   -2.000311    0.003838
   -1.948497    0.003780
   -1.896683    0.003723
   -1.844869    0.003668
   -1.793055    0.003614
   -1.741241    0.003561
