# energy [H], total DOS
   -0.423972    0.103862
   -0.422298    0.105180
   -0.420624    0.106528
   -0.418950    0.107906
   -0.417276    0.109316
   -0.415602    0.110758
   -0.413928    0.112235
   -0.412254    0.113746
   -0.410580    0.115293
   -0.408906    0.116877
   -0.407232    0.118501
   -0.405558    0.120165
   -0.403884    0.121870
   -0.402210    0.123619
   -0.400536    0.125413
   -0.398862    0.127254
   -0.397188    0.129144
   -0.395514    0.131084
   -0.393840    0.133077
   -0.392167    0.135125
   -0.390493    0.137230
   -0.388819    0.139395
   -0.387145    0.141622
   -0.385471    0.143914
   -0.383797    0.146274
   -0.382123    0.148706
   -0.380449    0.151211
   -0.378775    0.153794
   -0.377101    0.156459
   -0.375427    0.159209
   -0.373753    0.162049
   -0.372079    0.164983
   -0.370405    0.168017
   -0.368731    0.171154
   -0.367057    0.174402
   -0.365383    0.177765
   -0.363709    0.181251
   -0.362035    0.184866
   -0.360362    0.188617
   -0.358688    0.192514
   -0.357014    0.196564
   -0.355340    0.200777
   -0.353666    0.205163
   -0.351992    0.209734
   -0.350318    0.214502
   -0.348644    0.219481
   -0.346970    0.224684
   -0.345296    0.230128
   -0.343622    0.235832
   -0.341948    0.241813
   -0.340274    0.248095
   -0.338600    0.254702
   -0.336926    0.261660
   -0.335252    0.268999
   -0.333578    0.276752
   -0.331904    0.284959
   -0.330230    0.293661
   -0.328557    0.302908
   -0.326883    0.312754
   -0.325209    0.323263
   -0.323535    0.334509
   -0.321861    0.346575
   -0.320187    0.359560
   -0.318513    0.373580
   -0.316839    0.388771
   -0.315165    0.405295
   -0.313491    0.423347
   -0.311817    0.443161
   -0.310143    0.465023
   -0.308469    0.489287
   -0.306795    0.516392
   -0.305121    0.546889
   -0.303447    0.581482
   -0.301773    0.621069
   -0.300099    0.666819
   -0.298425    0.720245
   -0.296752    0.783307
   -0.295078    0.858492
   -0.293404    0.948788
   -0.291730    1.057341
   -0.290056    1.186405
   -0.288382    1.335270
   -0.286708    1.498245
   -0.285034    1.666670
   -0.283360    1.837547
   -0.281686    2.019277
   -0.280012    2.221778
   -0.278338    2.438518
   -0.276664    2.641124
   -0.274990    2.800258
   -0.273316    2.917754
   -0.271642    3.026823
   -0.269968    3.155725
   -0.268294    3.300593
   -0.266620    3.436619
   -0.264947    3.555431
   -0.263273    3.681893
   -0.261599    3.845239
   -0.259925    4.042485
   -0.258251    4.237931
   -0.256577    4.403325
   -0.254903    4.552959
   -0.253229    4.720283
   -0.251555    4.902600
   -0.249881    5.045668
   -0.248207    5.095739
   -0.246533    5.064114
   -0.244859    5.016435
   -0.243185    5.005563
   -0.241511    5.040561
   -0.239837    5.116314
   -0.238163    5.250084
   -0.236489    5.470683
   -0.234815    5.777327
   -0.233142    6.121785
   -0.231468    6.440427
   -0.229794    6.709418
   -0.228120    6.949130
   -0.226446    7.163193
   -0.224772    7.302290
   -0.223098    7.313103
   -0.221424    7.212495
   -0.219750    7.086110
   -0.218076    7.014831
   -0.216402    7.029700
   -0.214728    7.134480
   -0.213054    7.334782
   -0.211380    7.625211
   -0.209706    7.963384
   -0.208032    8.278684
   -0.206358    8.516757
   -0.204684    8.663026
   -0.203010    8.734294
   -0.201337    8.776454
   -0.199663    8.841196
   -0.197989    8.951077
   -0.196315    9.114089
   -0.194641    9.353000
   -0.192967    9.676032
   -0.191293   10.019256
   -0.189619   10.260287
   -0.187945   10.316180
   -0.186271   10.208220
   -0.184597   10.021518
   -0.182923    9.815499
   -0.181249    9.562373
   -0.179575    9.174627
   -0.177901    8.608828
   -0.176227    7.932020
   -0.174553    7.280134
   -0.172879    6.771454
   -0.171205    6.463369
   -0.169532    6.354855
   -0.167858    6.396251
   -0.166184    6.500454
   -0.164510    6.583521
   -0.162836    6.629187
   -0.161162    6.700723
   -0.159488    6.873151
   -0.157814    7.161473
   -0.156140    7.499838
   -0.154466    7.776355
   -0.152792    7.895872
   -0.151118    7.813506
   -0.149444    7.527623
   -0.147770    7.058774
   -0.146096    6.442192
   -0.144422    5.746077
   -0.142748    5.062160
   -0.141074    4.461730
   -0.139400    3.974456
   -0.137726    3.599481
   -0.136053    3.323049
   -0.134379    3.129451
   -0.132705    3.005562
   -0.131031    2.942068
   -0.129357    2.933473
   -0.127683    2.977847
   -0.126009    3.076712
   -0.124335    3.235174
   -0.122661    3.462364
   -0.120987    3.772136
   -0.119313    4.183805
   -0.117639    4.722271
   -0.115965    5.415657
   -0.114291    6.286376
   -0.112617    7.328857
   -0.110943    8.471198
   -0.109269    9.545992
   -0.107595   10.340066
   -0.105921   10.743788
   -0.104248   10.844389
   -0.102574   10.836195
   -0.100900   10.870361
   -0.099226   10.983419
   -0.097552   11.097836
   -0.095878   11.066020
   -0.094204   10.782658
   -0.092530   10.298686
   -0.090856    9.797751
   -0.089182    9.467475
   -0.087508    9.409142
   -0.085834    9.620799
   -0.084160   10.001621
   -0.082486   10.356670
   -0.080812   10.453019
   -0.079138   10.160897
   -0.077464    9.548289
   -0.075790    8.808958
   -0.074116    8.134076
   -0.072443    7.644705
   -0.070769    7.381593
   -0.069095    7.316616
   -0.067421    7.370207
   -0.065747    7.452326
   -0.064073    7.528592
   -0.062399    7.640906
   -0.060725    7.839656
   -0.059051    8.100985
   -0.057377    8.307934
   -0.055703    8.307902
   -0.054029    8.003649
   -0.052355    7.416432
   -0.050681    6.675949
   -0.049007    5.936352
   -0.047333    5.299873
   -0.045659    4.805411
   -0.043985    4.454093
   -0.042311    4.233869
   -0.040638    4.132830
   -0.038964    4.144454
   -0.037290    4.268778
   -0.035616    4.510955
   -0.033942    4.876147
   -0.032268    5.357515
   -0.030594    5.915377
   -0.028920    6.458005
   -0.027246    6.855617
   -0.025572    7.004462
   -0.023898    6.892595
   -0.022224    6.608103
   -0.020550    6.287734
   -0.018876    6.050115
   -0.017202    5.965827
   -0.015528    6.067815
   -0.013854    6.371219
   -0.012180    6.882219
   -0.010506    7.590511
   -0.008833    8.447859
   -0.007159    9.350223
   -0.005485   10.160762
   -0.003811   10.787503
   -0.002137   11.244150
   -0.000463   11.608540
    0.001211   11.939716
    0.002885   12.264428
    0.004559   12.591877
    0.006233   12.890346
    0.007907   13.076595
    0.009581   13.078815
    0.011255   12.912465
    0.012929   12.667275
    0.014603   12.455482
    0.016277   12.399136
    0.017951   12.602504
    0.019625   13.085342
    0.021299   13.737045
    0.022972   14.341983
    0.024646   14.685895
    0.026320   14.677239
    0.027994   14.383940
    0.029668   13.957709
    0.031342   13.541786
    0.033016   13.252917
    0.034690   13.182961
    0.036364   13.385351
    0.038038   13.876185
    0.039712   14.623832
    0.041386   15.518170
    0.043060   16.376668
    0.044734   17.010668
    0.046408   17.310887
    0.048082   17.308303
    0.049756   17.171686
    0.051430   17.105941
    0.053104   17.222683
    0.054777   17.482649
    0.056451   17.738995
    0.058125   17.860218
    0.059799   17.817034
    0.061473   17.656698
    0.063147   17.418747
    0.064821   17.096120
    0.066495   16.707076
    0.068169   16.357452
    0.069843   16.163808
    0.071517   16.121382
    0.073191   16.076426
    0.074865   15.862777
    0.076539   15.482744
    0.078213   15.117798
    0.079887   14.958412
    0.081561   15.055291
    0.083235   15.308062
    0.084909   15.564839
    0.086582   15.737060
    0.088256   15.831808
    0.089930   15.898632
    0.091604   15.960067
    0.093278   15.981023
    0.094952   15.881150
    0.096626   15.574390
    0.098300   15.037560
    0.099974   14.357541
    0.101648   13.661357
    0.103322   13.002488
    0.104996   12.357255
    0.106670   11.705408
    0.108344   11.079520
    0.110018   10.552382
    0.111692   10.191718
    0.113366   10.024299
    0.115040   10.022761
    0.116714   10.092886
    0.118387   10.088400
    0.120061    9.895729
    0.121735    9.510403
    0.123409    9.001929
    0.125083    8.430399
    0.126757    7.828517
    0.128431    7.232394
    0.130105    6.681244
    0.131779    6.188153
    0.133453    5.742029
    0.135127    5.342327
    0.136801    5.008728
    0.138475    4.752547
    0.140149    4.552992
    0.141823    4.366320
    0.143497    4.161488
    0.145171    3.942370
    0.146845    3.726557
    0.148519    3.514480
    0.150192    3.291880
    0.151866    3.055725
    0.153540    2.823307
    0.155214    2.616416
    0.156888    2.447479
    0.158562    2.319056
    0.160236    2.228771
    0.161910    2.173227
    0.163584    2.149922
    0.165258    2.157982
    0.166932    2.198411
    0.168606    2.274199
    0.170280    2.390237
    0.171954    2.552698
    0.173628    2.766956
    0.175302    3.032579
    0.176976    3.335053
    0.178650    3.640058
    0.180324    3.903534
    0.181998    4.096266
    0.183671    4.213374
    0.185345    4.266582
    0.187019    4.289200
    0.188693    4.337239
    0.190367    4.465465
    0.192041    4.702685
    0.193715    5.039898
    0.195389    5.425671
    0.197063    5.782396
    0.198737    6.062595
    0.200411    6.300555
    0.202085    6.584550
    0.203759    6.976941
    0.205433    7.460393
    0.207107    7.940999
    0.208781    8.319612
    0.210455    8.586134
    0.212129    8.814493
    0.213803    9.052576
    0.215476    9.257195
    0.217150    9.360476
    0.218824    9.387419
    0.220498    9.471944
    0.222172    9.762303
    0.223846   10.336295
    0.225520   11.172534
    0.227194   12.155945
    0.228868   13.108776
    0.230542   13.836742
    0.232216   14.199672
    0.233890   14.203363
    0.235564   13.984656
    0.237238   13.664102
    0.238912   13.248390
    0.240586   12.689255
    0.242260   12.016372
    0.243934   11.374916
    0.245608   10.923087
    0.247281   10.716775
    0.248955   10.672625
    0.250629   10.619862
    0.252303   10.432478
    0.253977   10.133934
    0.255651    9.843817
    0.257325    9.653508
    0.258999    9.587276
    0.260673    9.624086
    0.262347    9.688460
    0.264021    9.649741
    0.265695    9.413552
    0.267369    9.011346
    0.269043    8.534827
    0.270717    8.004381
    0.272391    7.359779
    0.274065    6.571930
    0.275739    5.708576
    0.277413    4.876393
    0.279086    4.146333
    0.280760    3.539460
    0.282434    3.047071
    0.284108    2.650039
    0.285782    2.328737
    0.287456    2.066520
    0.289130    1.850275
    0.290804    1.669975
    0.292478    1.518026
    0.294152    1.388666
    0.295826    1.277499
    0.297500    1.181139
    0.299174    1.096955
    0.300848    1.022880
    0.302522    0.957271
    0.304196    0.898814
    0.305870    0.846445
    0.307544    0.799293
    0.309218    0.756645
    0.310891    0.717906
    0.312565    0.682582
    0.314239    0.650254
    0.315913    0.620570
    0.317587    0.593229
    0.319261    0.567972
    0.320935    0.544578
    0.322609    0.522855
    0.324283    0.502635
    0.325957    0.483772
    0.327631    0.466139
    0.329305    0.449623
    0.330979    0.434123
    0.332653    0.419553
    0.334327    0.405833
    0.336001    0.392893
    0.337675    0.380671
    0.339349    0.369110
    0.341023    0.358160
    0.342696    0.347775
    0.344370    0.337914
    0.346044    0.328539
    0.347718    0.319616
    0.349392    0.311114
    0.351066    0.303005
    0.352740    0.295264
    0.354414    0.287866
    0.356088    0.280789
    0.357762    0.274015
    0.359436    0.267524
    0.361110    0.261300
    0.362784    0.255327
    0.364458    0.249590
    0.366132    0.244077
    0.367806    0.238774
    0.369480    0.233671
    0.371154    0.228756
    0.372828    0.224020
    0.374501    0.219453
    0.376175    0.215047
    0.377849    0.210793
    0.379523    0.206685
    0.381197    0.202714
    0.382871    0.198875
    0.384545    0.195161
    0.386219    0.191566
    0.387893    0.188085
    0.389567    0.184712
    0.391241    0.181443
    0.392915    0.178274
    0.394589    0.175199
    0.396263    0.172215
    0.397937    0.169318
    0.399611    0.166505
    0.401285    0.163771
    0.402959    0.161114
    0.404633    0.158531
    0.406306    0.156018
    0.407980    0.153573
    0.409654    0.151193
    0.411328    0.148876
